# inelasticity density G(b) / G(0)
0          1.00000
0.00784861 1.00001
0.0156972  1.00002
0.0235458  1.00005
0.0313944  1.00009
0.039243   1.00014
0.0470916  1.00021
0.0549402  1.00028
0.0627888  1.00037
0.0706375  1.00046
0.0784861  1.00057
0.0863347  1.00069
0.0941833  1.00081
0.102032   1.00095
0.10988    1.0011
0.117729   1.00125
0.125578   1.00142
0.133426   1.00159
0.141275   1.00177
0.149124   1.00196
0.156972   1.00215
0.164821   1.00235
0.172669   1.00256
0.180518   1.00278
0.188367   1.00299
0.196215   1.00322
0.204064   1.00344
0.211912   1.00367
0.219761   1.0039
0.22761    1.00413
0.235458   1.00437
0.243307   1.0046
0.251155   1.00483
0.259004   1.00507
0.266853   1.00529
0.274701   1.00552
0.28255    1.00574
0.290398   1.00596
0.298247   1.00617
0.306096   1.00637
0.313944   1.00656
0.321793   1.00675
0.329641   1.00692
0.33749    1.00708
0.345339   1.00723
0.353187   1.00737
0.361036   1.00749
0.368884   1.0076
0.376733   1.00768
0.384582   1.00775
0.39243    1.0078
0.400279   1.00782
0.408127   1.00782
0.415976   1.0078
0.423825   1.00775
0.431673   1.00768
0.439522   1.00757
0.447371   1.00744
0.455219   1.00727
0.463068   1.00707
0.470916   1.00683
0.478765   1.00656
0.486614   1.00625
0.494462   1.0059
0.502311   1.00551
0.510159   1.00507
0.518008   1.00459
0.525857   1.00407
0.533705   1.00349
0.541554   1.00287
0.549402   1.00219
0.557251   1.00147
0.5651     1.00068
0.572948   0.999845
0.580797   0.998949
0.588645   0.997993
0.596494   0.996977
0.604343   0.995898
0.612191   0.994755
0.62004    0.993546
0.627888   0.992271
0.635737   0.990927
0.643586   0.989514
0.651434   0.988029
0.659283   0.986471
0.667131   0.98484
0.67498    0.983134
0.682829   0.981351
0.690677   0.979491
0.698526   0.977552
0.706375   0.975533
0.714223   0.973434
0.722072   0.971252
0.72992    0.968989
0.737769   0.966641
0.745618   0.96421
0.753466   0.961693
0.761315   0.959091
0.769163   0.956403
0.777012   0.953627
0.784861   0.950765
0.792709   0.947815
0.800558   0.944777
0.808406   0.941651
0.816255   0.938437
0.824104   0.935134
0.831952   0.931743
0.839801   0.928263
0.847649   0.924695
0.855498   0.921039
0.863347   0.917295
0.871195   0.913464
0.879044   0.909546
0.886892   0.905541
0.894741   0.90145
0.90259    0.897274
0.910438   0.893013
0.918287   0.888668
0.926135   0.884241
0.933984   0.879731
0.941833   0.87514
0.949681   0.870469
0.95753    0.865719
0.965378   0.860891
0.973227   0.855986
0.981076   0.851007
0.988924   0.845953
0.996773   0.840827
1.00462    0.835629
1.01247    0.830362
1.02032    0.825027
1.02817    0.819626
1.03602    0.814159
1.04386    0.80863
1.05171    0.803039
1.05956    0.797388
1.06741    0.791679
1.07526    0.785915
1.08311    0.780096
1.09096    0.774225
1.0988     0.768303
1.10665    0.762333
1.1145     0.756316
1.12235    0.750255
1.1302     0.744151
1.13805    0.738006
1.1459     0.731823
1.15375    0.725603
1.16159    0.719348
1.16944    0.713061
1.17729    0.706744
1.18514    0.700398
1.19299    0.694025
1.20084    0.687628
1.20869    0.681209
1.21653    0.674769
1.22438    0.668311
1.23223    0.661836
1.24008    0.655347
1.24793    0.648845
1.25578    0.642333
1.26363    0.635812
1.27147    0.629285
1.27932    0.622753
1.28717    0.616217
1.29502    0.609681
1.30287    0.603145
1.31072    0.596612
1.31857    0.590083
1.32641    0.58356
1.33426    0.577045
1.34211    0.57054
1.34996    0.564045
1.35781    0.557563
1.36566    0.551095
1.37351    0.544643
1.38135    0.538209
1.3892     0.531793
1.39705    0.525398
1.4049     0.519024
1.41275    0.512674
1.4206     0.506348
1.42845    0.500047
1.43629    0.493774
1.44414    0.487529
1.45199    0.481314
1.45984    0.475129
1.46769    0.468976
1.47554    0.462856
1.48339    0.45677
1.49124    0.44952
1.49908    0.444704
1.50693    0.438726
1.51478    0.432786
1.52263    0.426885
1.53048    0.421023
1.53833    0.415202
1.54618    0.409422
1.55402    0.403683
1.56187    0.397988
1.56972    0.392336
1.57757    0.386728
1.58542    0.381165
1.59327    0.375647
1.60112    0.370174
1.60896    0.364748
1.61681    0.359369
1.62466    0.354037
1.63251    0.348753
1.64036    0.343516
1.64821    0.338329
1.65606    0.33319
1.6639     0.3281
1.67175    0.323059
1.6796     0.318069
1.68745    0.313128
1.6953     0.308237
1.70315    0.303397
1.711      0.298607
1.71884    0.293867
1.72669    0.289179
1.73454    0.284541
1.74239    0.279954
1.75024    0.275418
1.75809    0.270934
1.76594    0.2665
1.77378    0.262117
1.78163    0.257785
1.78948    0.253504
1.79733    0.249274
1.80518    0.245095
1.81303    0.240966
1.82088    0.236888
1.82873    0.232861
1.83657    0.228883
1.84442    0.224956
1.85227    0.221079
1.86012    0.217252
1.86797    0.213474
1.87582    0.209745
1.88367    0.206066
1.89151    0.202436
1.89936    0.198854
1.90721    0.19532
1.91506    0.191835
1.92291    0.188398
1.93076    0.185008
1.93861    0.181665
1.94645    0.178369
1.9543     0.17512
